<Group>					
Detector1					
15					
151		151		151	
oct27_1350_2vpp_650rpm_288000cyc_1st_80hz_enhanced signal	T637394429605032455	oct27_1720_2vpp_650rpm_432000cyc_1st_80hz_enhanced signal	T637394429605032457	oct27_1800_2vpp_650rpm_432000cyc_1st_80hz_enhanced signal	T637394429605032459
X	Y	X	Y	X	Y
550	135489.922	550	294288.438	550	543974.438
551	75566.72	551	163808.766	551	254702.438
552	66641.29	552	138616.984	552	194773.8
553	68635.48	553	143817.313	553	195101.938
554	71817.625	554	152683.6	554	202032.719
555	75493.09	555	161561.844	555	208658.7
556	80102.44	556	172097.6	556	217843.391
557	84260.875	557	181888.469	557	226672.359
558	88456.62	558	191934.422	558	237102.109
559	92750.35	559	202179.031	559	246715.328
560	96842.96	560	212832.938	560	254973.109
561	99783.4453	561	221764.578	561	263485.875
562	102918.141	562	229861.578	562	270650.875
563	106835.289	563	238302.938	563	278079.656
564	108833.492	564	244066.9	564	285120.156
565	112984.188	565	249478.719	565	290901.281
566	114747.734	566	254435.875	566	295008
567	116623.086	567	257603.188	567	298182.625
568	118314.391	568	259816.969	568	300956.969
569	118650.867	569	260890.078	569	302285.5
570	118145.148	570	261239.234	570	300000.031
571	117560.406	571	259133.219	571	299521.063
572	116548.109	572	256663.266	572	295510.469
573	115392.055	573	252975.609	573	290793.781
574	112946.711	574	248482.078	574	284366.281
575	110086.9	575	243295.969	575	278539.9
576	107544.836	576	237108.266	576	272139.844
577	104296.18	577	231678.344	577	263732.1
578	101668.781	578	223693.516	578	255359.078
579	97732.69	579	215674.922	579	246151.859
580	94043.94	580	206278.547	580	236512.531
581	90911.37	581	199224.781	581	227567.031
582	87053.77	582	189615.984	582	217685.547
583	83556.23	583	183247.219	583	209675.453
584	80106.47	584	174422.672	584	200534.016
585	76780.12	585	166098.047	585	192002.891
586	72575.79	586	158528.469	586	183975.172
587	69402.43	587	151244.1	587	175453.859
588	66099.24	588	143863.047	588	166242.734
589	62993.67	589	136492.219	589	158415.469
590	59939.53	590	129972.8	590	149430.547
591	57168.2578	591	123295.93	591	141113.125
592	53913.8945	592	116462.992	592	135472.672
593	51277.2734	593	111073.148	593	128108.813
594	48928.0078	594	105557.047	594	121793.266
595	46325.04	595	100051.453	595	116372.813
596	43546.97	596	94482.5859	596	109823.648
597	41434.85	597	89812.2	597	104613.914
598	38972.69	598	85211.94	598	99308.13
599	36958.0664	599	81035.9	599	94453.27
600	34886.6758	600	76886.03	600	90087.99
601	33695.0664	601	73438.875	601	85675.39
602	32154.3457	602	70404.31	602	81740.34
603	31254.125	603	66888.15	603	78934.99
604	29798.1113	604	64565.9648	604	75835
605	29055.6465	605	62039.957	605	72706.86
606	27704.32	606	60073.4375	606	69613.08
607	26450.49	607	57421.8945	607	67412.11
608	25647.1289	608	55857.9141	608	65600.55
609	25059.4473	609	53593.957	609	62629.0938
610	24050.6523	610	52358.5859	610	61068.2227
611	23307.666	611	50296.66	611	58985.14
612	22694.0742	612	49336.27	612	57381.6328
613	22232.9043	613	47496.23	613	56162.84
614	21516.1348	614	46285.832	614	54248.9375
615	20867.584	615	44640.4023	615	52275.0938
616	20240.1289	616	43548.9766	616	50631.5664
617	19545.5684	617	42442.6133	617	49243.7539
618	19130.6641	618	41213.82	618	47866.22
619	18509.3438	619	40055.5156	619	46678.8945
620	18053.4023	620	38989.7656	620	45266.5742
621	17577.4453	621	38067.76	621	44380.0977
622	17039.3945	622	36843.59	622	42833.4922
623	16599.5586	623	35927.832	623	41737.27
624	15887.252	624	34553.37	624	40548.7539
625	15437.457	625	33174.1	625	39198.6875
626	15180.0117	626	32231.625	626	37829.7422
627	14584.0107	627	31226.0273	627	36148.73
628	14131.2764	628	30170.3711	628	34092.5859
629	13815.7793	629	29139.9238	629	33245.3672
630	13222.874	630	27888.8984	630	32387.1914
631	12653.041	631	26585.8945	631	31241.08
632	12213.4238	632	25476.6367	632	29775.0332
633	11758.8086	633	24690.4121	633	28828.9063
634	11430.3789	634	23547.3	634	27753.4746
635	11159.0322	635	22958.7559	635	26445.4746
636	10629.3809	636	21985.2871	636	25597.9863
637	10215.8945	637	20932.7383	637	24493.8652
638	10157.8271	638	20570.89	638	24047.6445
639	9775.397	639	19693.8965	639	22711.1172
640	9194.775	640	18687.7168	640	21864.9883
641	9167.747	641	18298.9063	641	21036.9844
642	8878.452	642	17355.0059	642	20145.9141
643	8449.032	643	16110.6563	643	18849.0586
644	8112.71729	644	15743.9961	644	18195.6934
645	7807.443	645	14990.6895	645	17396.0879
646	7513.18848	646	14318.5771	646	16574.5117
647	7033.79443	647	13573.4043	647	15684.8916
648	6855.655	648	12826.291	648	14801.3711
649	6307.247	649	12369.6406	649	14106.2363
650	6117.114	650	11567.5566	650	13458.2285
651	5681.82373	651	11094.9521	651	12789.2373
652	5535.731	652	10361.0635	652	12088.252
653	5121.48145	653	9944.586	653	11528.5059
654	4992.40771	654	9277.861	654	11148.0186
655	4684.23975	655	8802.376	655	10598.3438
656	4425.106	656	8281.874	656	10142.8105
657	4218.005	657	7982.599	657	9675.287
658	4150.973	658	7683.33447	658	8985.561
659	3825.827	659	7419.109	659	8777.352
660	3826.82739	660	6948.72754	660	8445.028
661	3699.77319	661	6645.49463	661	8170.771
662	3531.70459	662	6559.43	662	7765.40625
663	3492.68921	663	6068.08	663	7483.163
664	3233.59058	664	5963.009	664	7060.816
665	3155.5625	665	5627.789	665	6651.499
666	3087.53857	666	5688.828	666	6509.39355
667	3011.51245	667	5274.572	667	6282.22949
668	2835.454	668	5121.48145	668	5864.943
669	2758.43	669	4818.31152	669	5718.84766
670	2569.373	670	4644.21826	670	5563.74854
671	2571.37354	671	4596.19336	671	5340.61133
672	2435.335	672	4318.053	672	5095.467
673	2283.29443	673	4145.971	673	4995.40967
674	2240.28345	674	3911.8645	674	4773.287
675	2167.26538	675	3876.849	675	4574.182
676	2127.25562	676	3564.71777	676	4493.14063
677	2068.2417	677	3608.7356	677	4327.05762
678	2042.2356	678	3509.6958	678	4168.982
679	1938.21228	679	3397.652	679	3861.84253
680	1900.204	680	3206.58081	680	3866.84473
681	1818.18677	681	3033.51978	681	3836.83154
682	1766.17627	682	2990.50513	682	3595.73047
683	1709.165	683	2946.49048	683	3478.68359
684	1736.17029	684	2900.47534	684	3466.679
685	1687.16077	685	2880.46875	685	3329.62622
686	1596.14392	686	2736.423	686	3297.61426
687	1525.13147	687	2706.41382	687	3287.6106
688	1656.15491	688	2515.35742	688	3247.596
689	1538.13367	689	2515.35742	689	3065.531
690	1500.1272	690	2601.38232	690	3083.537
691	1480.12378	691	2365.31616	691	2988.50464
692	1517.13	692	2327.306	692	2792.44043
693	1449.11865	693	2295.29761	693	2827.45166
694	1467.12158	694	2238.283	694	2651.39722
695	1427.11511	695	2125.25513	695	2689.40869
696	1377.10718	696	2090.24683	696	2494.35156
697	1294.0946	697	2021.23083	697	2548.367
698	1300.09546	698	1980.22156	698	2439.33618
699	1286.09351	699	1930.21045	699	2362.31519
700	1234.086	700	1852.19385	700	2276.29272
</Group>					
